num crossings	time (s)	maj axis (mm)	min axis (mm)	theta (rad )	slope (V/s)
2855	3952.863668	72.644840	-12.462864	0.467876	57.940019
2857	3954.935505	72.543366	-12.796513	0.465526	56.105305
2859	3957.006358	72.182218	-13.137890	0.461606	58.299579
2861	3959.080032	71.925979	-13.489601	0.457953	55.015127
2863	3961.152878	71.651129	-13.804511	0.455483	56.288916
2865	3963.226463	71.488942	-14.080424	0.452402	53.352564
2867	3965.299197	71.484163	-14.411870	0.450459	53.802288
2869	3967.368730	71.459837	-14.793195	0.444603	53.323390
2871	3969.434976	71.466149	-15.247017	0.433914	50.391994
2873	3971.503076	70.898274	-15.456613	0.425104	48.623801
2875	3973.578309	70.326670	-15.551876	0.425048	55.454422
2877	3975.653421	70.079993	-15.923055	0.425586	50.320460
2879	3977.727029	70.026172	-16.205899	0.420083	48.626749
2881	3979.798589	69.919275	-16.498784	0.414427	49.589002
2883	3981.869253	69.910176	-16.733474	0.410204	48.598314
2885	3983.936199	69.712801	-17.065266	0.412625	48.534496
2887	3986.005876	69.168214	-17.496647	0.411448	44.928955
2889	3988.081256	68.685459	-17.854272	0.397385	42.246022
2891	3990.157468	68.422098	-18.064972	0.385450	43.709171
2893	3992.230912	68.630569	-18.198803	0.381828	41.996385
2895	3994.302745	68.448290	-18.401847	0.379023	43.101727
2897	3996.374462	68.188824	-18.607133	0.376304	44.123206
2899	3998.445876	68.009788	-18.820511	0.372495	42.959678
2903	4002.585824	67.633141	-19.377734	0.361942	39.195641
2905	4004.652920	67.654690	-19.639020	0.351691	38.956517
2907	4006.721175	67.236545	-19.808766	0.341423	38.212278
2909	4008.793890	66.804226	-19.851302	0.338405	39.616105
2911	4010.868018	66.546054	-20.101957	0.336263	39.279293
2913	4012.943149	66.395695	-20.345806	0.333154	39.825061
2915	4015.013416	66.294692	-20.540820	0.326534	37.597009
2917	4017.083147	66.233763	-20.783538	0.323677	36.462647
2919	4019.151309	65.932682	-21.057444	0.320566	36.646192
2921	4021.224911	65.309529	-21.390413	0.314108	34.108807
2923	4023.300595	65.025169	-21.572749	0.299196	32.085675
2925	4025.376307	64.782833	-21.711234	0.288867	31.759021
2927	4027.449835	64.790199	-21.825174	0.285315	31.958817
2929	4029.520775	64.615381	-21.981576	0.280673	32.242233
2933	4033.662181	64.241016	-22.378450	0.269535	30.316825
2935	4035.729019	64.266823	-22.586540	0.258960	28.773905
2937	4037.796740	64.048695	-22.723416	0.248676	29.589890
2939	4039.868432	63.641466	-22.721100	0.242088	30.708088
2941	4041.942212	63.411371	-22.847257	0.238001	30.064232
2943	4044.016254	63.219532	-23.024889	0.233045	29.953997
2945	4046.088045	63.146733	-23.192675	0.227370	30.069817
2947	4048.157512	63.044030	-23.337663	0.223091	28.066433
2949	4050.226295	62.765973	-23.523250	0.218827	27.226672
2951	4052.299783	62.249655	-23.760554	0.209127	26.061120
2953	4054.376974	61.842106	-23.923108	0.196177	24.817863
2955	4056.452248	61.673509	-23.999700	0.186668	24.124337
2959	4060.597099	61.497599	-24.198422	0.174053	24.415655
2961	4062.667255	61.358814	-24.283021	0.168961	23.943682
2963	4064.735559	61.306329	-24.411803	0.159655	23.077640
2965	4066.802347	61.167182	-24.528596	0.147879	22.347553
2967	4068.872722	60.971782	-24.538658	0.137513	23.695819
2969	4070.946031	60.681058	-24.547747	0.131345	24.356889
2971	4073.018537	60.543424	-24.603193	0.126029	23.466258
2973	4075.091158	60.390692	-24.729911	0.119317	23.836029
2975	4077.161098	60.224334	-24.854159	0.115956	23.432052
2977	4079.231833	60.059428	-24.917515	0.109377	22.132496
2979	4081.305358	59.624151	-25.046912	0.099353	20.585527
2981	4083.381456	59.234828	-25.125372	0.085323	19.826835
2983	4085.456999	59.086471	-25.174646	0.075448	19.376499
2987	4089.602899	58.801357	-25.214372	0.060977	19.566077
2989	4091.673085	58.756248	-25.254923	0.054981	19.035637
2991	4093.741441	58.667883	-25.329904	0.045277	18.465772
2993	4095.808843	58.545688	-25.373791	0.032432	18.639263
2995	4097.878441	58.524845	-25.314062	0.023633	19.013685
2997	4099.951301	58.298360	-25.267954	0.015658	19.726059
2999	4102.023953	58.176993	-25.287741	0.008848	19.925323
3001	4104.096813	58.078304	-25.315984	0.002657	20.188139
3005	4108.238311	57.723480	-25.324494	-0.008524	18.876426
3007	4110.311094	57.303271	-25.383135	-0.020484	17.341145
3009	4112.388962	57.010720	-25.399798	-0.035183	16.857551
3011	4114.465408	56.848372	-25.352646	-0.045458	16.597613
3013	4116.539217	56.754088	-25.347710	-0.052458	17.299068
3017	4120.679756	56.698199	-25.328892	-0.066555	16.529165
3019	4122.749439	56.692205	-25.327952	-0.077135	16.707976
3021	4124.816535	56.607521	-25.278058	-0.088433	16.903779
3023	4126.885875	56.376326	-25.256759	-0.093453	17.060144
3025	4128.957716	56.296989	-25.134656	-0.099430	16.986074
3027	4131.029703	56.195764	-25.075982	-0.104882	18.045881
3029	4133.102179	56.107681	-25.036196	-0.113247	17.706621
3031	4135.172991	56.033562	-24.936450	-0.117151	17.752765
3033	4137.244680	55.761795	-24.908285	-0.124636	16.331708
3035	4139.321567	55.421643	-24.878389	-0.145575	15.816733
3037	4141.396959	55.242675	-24.809111	-0.157915	15.372820
3039	4143.474189	55.153383	-24.792642	-0.166040	15.818607
3041	4145.545002	55.132650	-24.692152	-0.172653	15.521560
3043	4147.616737	55.095046	-24.657851	-0.178720	16.246372
3047	4151.754037	55.076277	-24.494764	-0.196490	15.620519
3049	4153.822044	55.014170	-24.436046	-0.205325	16.017301
3051	4155.889781	54.823095	-24.376526	-0.202852	16.831345
3053	4157.961919	54.725783	-24.237695	-0.211439	16.944132
3055	4160.034004	54.688346	-24.135911	-0.216120	17.562517
3057	4162.105108	54.644385	-24.033443	-0.220768	17.183630
3059	4164.176857	54.472069	-23.934013	-0.228723	15.976379
3061	4166.251500	54.188883	-23.797963	-0.244574	15.989644
3063	4168.327094	53.970950	-23.700638	-0.261808	15.454068
3065	4170.403069	53.893459	-23.574834	-0.270926	15.977911
3067	4172.478540	53.897597	-23.513214	-0.277894	16.067582
3069	4174.548805	53.921488	-23.409268	-0.283600	15.980587
3071	4176.619354	53.835695	-23.313637	-0.289840	16.177561
3073	4178.688062	53.873869	-23.193074	-0.298163	15.813097
3075	4180.755832	53.810031	-23.045228	-0.306060	16.064243
3077	4182.823293	53.729266	-22.929511	-0.309396	15.801634
3079	4184.893093	53.615084	-22.819607	-0.312045	16.549042
3081	4186.965866	53.555673	-22.674776	-0.319993	17.725738
3083	4189.035605	53.445462	-22.535082	-0.321365	17.115473
3085	4191.108414	53.329125	-22.380443	-0.330576	17.390884
3087	4193.181089	53.179639	-22.233199	-0.340946	16.735073
3089	4195.255808	52.944282	-22.065813	-0.354992	16.611568
3091	4197.331868	52.861611	-21.951294	-0.365235	16.520202
3093	4199.405079	52.861930	-21.806403	-0.372438	16.870394
3095	4201.478428	52.879499	-21.716983	-0.378419	17.717144
3097	4203.548909	52.843521	-21.597426	-0.383220	17.269349
3099	4205.618691	52.831734	-21.456067	-0.389387	17.134699
3101	4207.686412	52.860969	-21.325960	-0.397922	17.147911
3103	4209.753235	52.784127	-21.160037	-0.403862	17.381416
3105	4211.823166	52.661777	-21.015199	-0.408033	17.949171
3107	4213.893586	52.594852	-20.883729	-0.412384	18.564887
3109	4215.963669	52.561916	-20.696117	-0.414575	18.326994
3111	4218.034368	52.431039	-20.550181	-0.417800	17.985731
3113	4220.106923	52.278147	-20.347446	-0.426538	18.165304
3115	4222.181025	52.072317	-20.212115	-0.439937	17.676282
3117	4224.256593	52.005325	-20.034855	-0.448796	17.876131
3119	4226.330704	51.982824	-19.840232	-0.454630	18.533893
3121	4228.402276	52.018714	-19.773836	-0.460593	17.887970
3123	4230.475177	51.963399	-19.651916	-0.464667	19.144904
3125	4232.545719	51.992676	-19.490795	-0.469420	18.523326
3127	4234.613089	51.965006	-19.345758	-0.475819	18.494898
3129	4236.680448	51.912733	-19.164043	-0.482363	18.707043
3131	4238.747939	51.831406	-19.040718	-0.488828	18.543355
3133	4240.816709	51.739540	-18.878469	-0.489564	19.140328
3135	4242.887402	51.695167	-18.693791	-0.493333	19.789677
3137	4244.959515	51.558511	-18.521996	-0.500015	20.830816
3139	4247.031651	51.472631	-18.338234	-0.506222	19.831882
3141	4249.104383	51.278028	-18.149399	-0.512557	20.022674
3143	4251.179025	51.164629	-17.978810	-0.519119	19.707935
3145	4253.252299	51.163863	-17.833462	-0.526237	19.200400
